angle,peak_position,peak_std,gauss_center,gauss_std,centroid,centroid_std,temp,humid
49.99999,1085.85304,2.1315246757661486,3345.716235,1.2099834942159178,1048.0586049999997,1.48491130525531,26.56,40.6
49.0,1059.876945,3.21897603943786,3371.06207,2.0580561795295647,1022.4842279999999,2.1733734149533452,26.56,40.7
48.0,1025.7090925000002,3.019282483713436,3393.30415,1.3129837856958355,1001.1279349999999,1.282996928006839,26.56,40.6
47.00001,988.7482045000003,2.4768637464230427,3419.5814899999996,2.365939609732292,975.1200075,2.4120298787180823,26.56,40.6
46.00001,953.8961995,2.233422646111728,3444.90995,2.0982757703648005,948.9581119999999,1.571760557526498,26.56,40.6
45.00002,923.334725,1.295674596002026,3466.0130399999994,1.186242163472587,926.5294275,1.1312812845701847,26.56,40.6
44.00002,893.4844180000002,2.0877529847556002,3485.214825,1.3457064333929045,907.9459175,1.5794542398242453,26.56,40.6
43.00003,852.9603,3.6300002298939247,3513.2516800000003,1.5026482408068564,880.47839,1.6108762842564794,26.56,40.6
42.00003,822.925806,2.9840847348800383,3531.8442450000002,1.429932886003765,862.5499990000001,1.5349186141515783,26.56,40.6
41.00004,791.3248565,2.8855657447739427,3558.261775,1.4726389271899163,836.7437900000001,1.3348008176877846,26.56,40.6
40.00004,761.2482555,4.220810020263266,3578.686675,2.234270264510331,816.3953799999999,2.223506051363469,26.56,40.6
39.00005,731.1474935000001,4.543265587019195,3596.57205,1.968305104779249,799.178247,1.9116043361980206,26.56,40.6
38.00005,696.5678635,4.478220576417901,3618.378535,1.7652003708573696,778.1026095000001,1.7632574261249279,26.56,40.6
37.00006,666.1992505000001,2.7953795932850882,3640.1038799999997,1.6556211437403012,756.3792325000001,1.4863940001018339,26.56,40.5
36.00006,641.8643890000001,3.1870972014105443,3657.92832,1.1381781321920068,738.7647979999999,1.270028725673544,26.56,40.5
35.00007,683.1875115,47.9816130766691,3679.4192199999998,1.9855939735001715,717.0357614999999,2.028310768608374,26.56,40.5
34.00007,693.7244775,5.982794534913322,3700.148865,1.7116898072591755,696.5822714999999,1.6628700427973384,26.56,40.5
33.00008,667.3812489999999,4.079631366244866,3714.97822,2.3781851417835194,680.7789260000001,2.4259694502083162,26.62,40.5
32.00008,641.5591565,2.192248001534654,3732.82785,1.0712639756381077,662.5179725,1.051107121800042,26.62,40.5
31.00009,610.7255735,5.146793819364904,3751.244669999999,2.5885546415133,644.6199190000001,2.5260655263787126,26.62,40.5
30.00009,582.7814615000001,5.351244650847375,3771.1687200000006,1.35195663488148,625.2476625,1.6332017003355057,26.62,40.5
29.0001,552.6028855000001,3.2278748488695688,3786.7504400000007,1.7587760063180429,609.7724990000002,1.725684072560497,26.62,40.5
28.0001,527.5191674999999,3.4103192771921793,3801.300945,1.2187696724463313,595.9573545000001,1.3777598555353097,26.62,40.4
27.00011,494.7045405,3.6783729188738823,3823.2540500000005,1.241941455343241,574.4961004999999,1.3748136864334402,26.62,40.4
26.00011,472.987024,3.3150481438304933,3835.009805,1.804093044018277,562.5625579999999,1.9131180157209318,26.62,40.4
25.00012,457.55654100000004,22.00411779458447,3855.36755,1.6111494531855055,542.0413605,1.5929948114023302,26.62,40.3
24.00012,493.9588134999999,4.906410452476711,3868.582775,1.4644354652475706,529.7478045000001,1.2410867919507997,26.62,40.4
23.00013,472.650109,5.382131493259806,3886.1660449999995,1.6470043902415579,512.5291875,1.7914259730641204,26.62,40.4
22.00013,453.9126705,3.6343967196241564,3902.0904050000004,1.4012060610328205,497.1779445,1.4104708672867852,26.62,40.4
21.00014,431.61785799999996,9.010974287293017,3915.202205,2.2616626429410345,483.70688649999994,2.19314414315219,26.62,40.5
20.00014,408.656396,3.3619077004825653,3931.568890000001,2.079573694991406,467.55943449999995,2.209858664119669,26.62,40.5
19.00015,386.50985299999996,3.725881173303969,3947.4094650000006,1.738042101985691,452.11739449999993,1.6998059635366523,26.62,40.6
18.00015,378.1798685,20.649506995110386,3961.2773050000005,1.3596761189617497,438.2936024999999,1.3485171614624474,26.62,40.5
17.00016,395.37824749999993,18.309570616648514,3972.114605,1.0193550634960102,427.39526099999995,1.371446887666092,26.68,40.5
16.00016,377.373695,9.830753449741527,3988.3618799999995,1.6438098483705341,411.33563050000004,1.742192232873499,26.68,40.5
15.00017,356.85965550000003,7.913353571735226,4005.2080949999995,1.7114212744017507,394.6900915,1.796726437798128,26.68,40.4
14.00017,337.523232,3.0263056573280926,4017.65068,1.3588999509162232,382.2153224999999,1.3884405479957607,26.68,40.4
13.00018,320.9625275000001,4.00798256674337,4029.1914200000006,1.86593223821235,370.98581599999994,1.7782242332461917,26.68,40.4
12.00018,297.4381995000001,3.211454750941501,4046.9231449999997,1.2056302059399961,353.58728949999994,1.1533099753165852,26.68,40.5
11.00019,292.0077520000001,8.118159198642013,4057.9479600000004,2.357997444103794,342.62122899999997,2.4527173744602093,26.68,40.5
10.00019,284.694249,20.63198292757749,4073.0748200000003,1.35233789401911,327.45404099999996,1.3668591060343371,26.68,40.4
9.0002,288.2300675,6.953230211651178,4083.4083100000003,1.0671919705000963,317.38199699999996,1.1966689471240568,26.68,40.4
8.0002,269.06951599999996,5.824986596954881,4099.371050000002,1.5624261974570062,301.4648805,1.6227290738828637,26.68,40.4
7.00021,254.527357,4.08353369262591,4110.02094,1.1627082524864492,291.12220600000006,1.3239253913283813,26.68,40.4
6.00021,235.59674049999998,5.628231904156466,4125.49898,1.7874722668057517,275.5553604999999,1.9452067473137022,26.68,40.5
5.00022,221.23001549999998,12.58684905640664,4136.031280000001,1.484884788998819,265.1363635,1.6194780943540874,26.68,40.5
4.00022,204.8176405,5.765317188591169,4149.469515000001,1.739616137047087,251.77325499999998,1.7219906049961464,26.68,40.4
3.00023,200.921839,10.322837804998635,4163.64617,1.0306308971208322,237.34886550000002,1.0945407938833254,26.68,40.4
2.00023,194.0272095,13.327966216222368,4174.53825,2.6440238901151996,226.623033,2.600176809638336,26.68,40.4
1.00024,179.506678,3.8005880790959172,4188.46167,1.519989585194484,213.1101915,1.6221523116380723,26.68,40.4
0.00024,159.6463015,6.0725549161405485,4202.287690000001,2.6123199865063027,199.74281149999996,2.62275740818756,26.68,40.4
-0.99976,142.72718449999996,8.048429007616626,4215.621795,1.864225450012593,186.80299099999996,2.0809654939183893,26.75,40.5
-1.99975,123.32323095,5.197920242679193,4229.29052,1.618902181603349,173.44703450000003,1.7232424600255032,26.75,40.6
-2.99975,141.86475775000002,17.551661723238233,4239.934325,1.5592914390437613,163.09000300000002,1.5006804146323058,26.75,40.5
-3.99974,132.06348795,15.877151307167066,4256.165890000001,1.1863322801391085,147.22911200000001,1.2129678122382297,26.75,40.5
-4.99974,112.57747875,3.7485196871454725,4268.331895,1.4613630289819497,134.888195,1.4202840807827897,26.75,40.5
-5.99973,86.80584689999999,3.0554085328580993,4280.187065,1.7582632036402475,123.24979345,1.6964022975892667,26.75,40.4
-6.99973,61.00963084999999,2.8886967246406337,4294.32915,1.9579685379239267,107.95465099999998,1.960507019003377,26.75,40.3
-7.99972,60.949157600000014,36.31210374238583,4305.829284999999,1.949840013251007,96.73953859999999,1.943532115861131,26.75,40.2
-8.99972,82.21903069999999,2.5352973483977004,4320.489605,1.6225943151247033,82.52422985000001,1.7558209267970437,26.75,40.2
-9.99971,53.975402700000004,6.109657694290353,4336.14026,2.261028492832401,67.97908939999999,2.4041281454541346,26.75,40.2
-10.99971,30.2754276,3.016121858863903,4350.61791,2.001809980467515,54.08765875,1.9849726333351276,26.75,40.4
-11.9997,12.007263400000003,4.262160136166313,4365.129805,1.895316201449001,40.32142269999999,1.9197239722327288,26.75,40.5
-12.9997,-14.279724149999998,3.176178593535151,4378.144754999999,2.0044237010859423,28.304504699999995,2.068254666354922,26.75,40.4
-13.99969,-45.23580340000001,2.673672223482647,4392.3523000000005,1.70761435634626,14.72681905,1.6439910877368367,26.75,40.3
-14.99969,-75.03568050000001,3.028838717586701,4408.174829999999,2.1244631646842147,0.03350833734000003,2.189795530857101,26.75,40.3
-15.99968,-88.99478685,17.34583381236313,4423.309875,2.2679505893812144,-14.001892199999997,2.1935550598225837,26.81,40.4
-16.99968,-63.82340139999999,26.95044090248239,4438.507005,2.8026236298288714,-29.99671664999999,2.5161531661751684,26.81,40.3
-17.99967,-61.9187373,3.7118712932954745,4451.621445,1.4350554057161307,-44.410779000000005,1.6427094563344122,26.81,40.3
-18.99967,-87.57386475000001,1.7023485150553603,4466.00425,1.7661743661087674,-57.93231185,1.804480995967046,26.81,40.3
-19.99966,-123.94586184999999,2.011430734795318,4483.333114999999,1.3457280539823047,-75.57696424999999,1.332856928995263,26.81,40.2
-20.99966,-162.117371,2.0343609933266533,4493.557265,1.2838775172401948,-87.60123300000001,1.4265127430883708,26.81,40.3
-21.99965,-166.19896150000005,12.7371851765766,4508.356935000001,1.2699429633944814,-101.9557255,1.4951508674761709,26.81,40.3
-22.99965,-198.87530600000002,3.086331922918207,4528.671689999999,1.2686407016567087,-121.24207759999999,1.2519128473715093,26.81,40.3
-23.99964,-241.7206414999999,4.056214978936983,4540.661180000001,1.8478884199540389,-132.226892,1.9382897173993316,26.81,40.3
-24.99964,-252.23470449999996,5.364930653086272,4561.234914999999,1.4449128248012124,-151.065074,1.4911896603195691,26.81,40.3
-25.99963,-282.8882645,1.9162740305015775,4575.678290000001,0.7039000148457768,-164.54913249999998,0.8517808477588252,26.81,40.3
-26.99963,-177.6256955,1.9948503250982936,4591.472534999999,1.8854830304924868,-181.139929,2.073148147933235,26.81,40.2
-27.99962,-242.76009449999998,3.1373013891280452,4609.721545000001,2.467684731377803,-198.925671,2.5018231271532794,26.81,40.2
-28.99962,-176.7129735,2.1357411896910055,4622.1542949999985,1.808217623648952,-209.67608750000005,1.739030474146084,26.81,40.3
-29.99961,-241.8343865,3.62962884132011,4642.887525,2.0796917898752416,-227.68236250000004,2.089585140299083,26.81,40.2
-30.99961,-247.95728599999998,5.6145437330556085,4657.022870000001,2.302732100158234,-243.25525899999997,2.399859315738946,26.81,40.3
-31.9996,-290.5361510000001,1.1604843327718872,4672.504615,1.575522591483598,-256.69759100000005,1.7095468140940167,26.81,40.3
-32.9996,-345.76619750000003,3.013353766395302,4690.41334,1.4551844413681196,-275.4839720000001,1.3079391782517917,26.81,40.2
-33.99959,-358.88160200000004,2.3101147588217352,4706.058305,1.9254363039257285,-290.4768245,1.9567402230022202,26.81,40.2
-34.99959,-417.5874365000001,1.6816427766035014,4719.06322,2.121239775838635,-303.32738400000005,2.0959531223417196,26.81,40.3
-35.99958,-445.702919,3.7535734612245264,4740.255935,1.6507742002694383,-321.896377,1.6844119594478635,26.81,40.2
-36.99958,-486.7323835,1.8533031785578848,4754.4870550000005,2.331368545613223,-336.22108299999996,2.4180712563530866,26.81,40.2
-37.99957,-500.92323,57.458966943443386,4773.370965,2.0460070809445234,-355.12413349999997,1.980663684665506,26.81,40.2
-38.99957,-558.506427,5.928530036262862,4784.915365,1.472625204277928,-367.45323449999995,1.3893690496462012,26.81,40.1
-39.99956,-491.23995349999996,3.0299658130815157,4806.053285,1.200343925829227,-387.39886799999994,1.360121575013061,26.81,40.3
-40.99956,-550.6295785,3.019972528469861,4819.635215,1.8483724032984397,-398.65511449999997,1.9758440141252993,26.81,40.1
-41.99955,-568.9048145,7.085110003629788,4831.45927,5.440895213115209,-412.636387,6.16109562319001,26.81,40.1
-42.99955,-635.0724230000001,2.2131872601479268,4856.87428,1.409157056754118,-438.05535799999996,1.6182470791649886,26.81,40.1
-43.99954,-661.1354055,2.4469283982831884,4868.631039999999,1.8407697385605224,-450.072425,1.799046807491398,26.87,40.1
-44.99954,-478.0410320000001,2.0304837878584423,4892.9499049999995,1.4042361284608909,-472.826454,1.5100106522683838,26.87,40.1
-45.99953,-518.6873414999999,0.9721955165720276,4909.98077,2.3395710220252215,-489.4691275,2.3536091247207436,26.87,40.0
-46.99953,-561.1809395,1.0795116051922538,4925.799164999999,2.0516867108004733,-507.58030899999994,2.1600046958141115,26.87,40.1
-47.99952,-603.5564895,2.07658753141899,4947.924409999999,2.441909740530976,-527.427672,2.3062192052807857,26.87,40.2
-48.99952,-646.1060349999999,0.9704109308097199,4967.71157,2.046100330409051,-548.048208,2.037570493567282,26.87,40.2
-49.99951,-689.1688180000001,1.1790041988330737,4984.042275000001,1.9809676092443418,-565.756206,1.984778965765205,26.87,40.1